Wavenumber	Intensity
97.6598	534.5
98.4666	538
99.2734	539.5
100.08	521
100.887	515.5
101.693	508.5
102.5	535.5
103.306	524
104.113	550
104.919	556.5
105.726	550.5
106.532	568.5
107.338	556
108.144	533.5
108.95	552
109.756	529
110.561	535.5
111.367	552
112.173	534
112.978	532
113.784	545
114.59	566
115.396	540
116.2	551.5
117.005	543
117.811	559
118.616	537
119.421	542
120.225	551
121.03	553
121.835	556
122.641	560
123.446	544.5
124.249	554
125.054	554.5
125.859	551.5
126.662	537
127.467	549.5
128.272	554
129.076	554.5
129.879	565
130.684	553
131.488	565
132.291	547.5
133.096	543
133.898	541.5
134.703	564
135.507	543.5
136.309	540
137.114	550.5
137.916	556.5
138.72	557
139.524	560.5
140.326	563
141.13	548
141.932	542
142.736	528
143.538	537
144.342	526.5
145.143	529
145.947	537
146.749	531
147.552	524
148.354	515
149.157	524
149.959	539
150.762	532
151.563	543.5
152.366	526.5
153.168	528
153.969	546.5
154.772	534.5
155.573	532
156.376	548.5
157.177	532.5
157.978	541
158.78	535.5
159.581	551
160.382	556.5
161.185	550
161.985	574
162.786	569
163.588	539
164.389	559
165.189	559
165.991	577
166.792	560
167.592	558.5
168.393	560.5
169.194	547
169.995	580
170.795	572.5
171.595	558.5
172.395	565.5
173.196	560
173.996	558.5
174.796	566
175.596	544
176.396	573
177.195	555.5
177.996	558
178.796	560
179.596	554
180.395	558.5
181.194	581.5
181.994	563
182.793	558
183.592	560.5
184.391	557
185.192	573
185.991	572
186.79	564.5
187.589	561.5
188.388	570.5
189.187	575
189.986	573
190.784	570.5
191.583	571
192.381	577
193.18	577
193.979	585
194.777	592
195.575	591
196.372	589.5
197.17	606
197.969	598
198.767	596.5
199.565	592.5
200.363	592
201.161	604.5
201.959	622
202.757	584.5
203.553	583
204.351	609.5
205.148	597
205.946	586
206.744	596
207.541	600.5
208.337	595
209.134	602.5
209.932	593
210.729	582.5
211.526	576.5
212.322	579
213.119	584.5
213.916	572.5
214.713	561
215.509	562.5
216.305	572
217.102	556.5
217.898	564
218.694	565.5
219.491	556.5
220.286	573.5
221.083	559
221.879	554
222.674	537.5
223.47	566
224.267	568.5
225.061	548.5
225.858	538.5
226.652	546
227.448	553
228.244	546
229.039	563.5
229.835	554.5
230.629	532
231.425	537
232.219	548
233.015	553
233.809	537
234.605	554
235.399	541.5
236.194	557.5
236.988	541.5
237.783	539
238.577	555
239.373	546.5
240.166	562.5
240.961	542.5
241.755	559.5
242.548	557
243.343	558.5
244.137	563.5
244.932	564
245.725	558.5
246.518	563
247.313	568
248.106	554.5
248.899	561.5
249.694	549
250.486	560.5
251.279	578.5
252.074	571.5
252.867	569.5
253.659	578
254.453	562.5
255.246	558.5
256.039	568
256.831	577.5
257.625	570.5
258.417	582.5
259.21	586
260.002	581.5
260.794	589.5
261.588	590.5
262.38	596.5
263.172	590
263.964	581.5
264.756	602.5
265.548	603
266.341	588.5
267.133	606.5
267.925	600
268.716	625.5
269.508	618
270.299	619.5
271.091	613
271.882	629
272.674	619
273.465	625.5
274.256	637
275.049	621
275.84	635.5
276.631	649
277.422	639.5
278.213	670
279.004	659.5
279.795	678.5
280.586	669.5
281.375	657
282.166	694.5
282.956	684
283.747	683.5
284.538	693.5
285.328	686.5
286.118	693
286.909	690
287.699	686.5
288.489	694.5
289.28	695
290.07	717.5
290.858	720
291.648	725.5
292.438	715
293.228	737
294.018	724
294.808	740.5
295.596	757.5
296.386	739
297.175	755
297.965	759.5
298.753	745.5
299.543	785
300.332	756.5
301.121	796
301.909	777
302.698	774.5
303.488	775.5
304.277	770
305.064	799
305.853	795.5
306.642	805.5
307.43	796.5
308.218	804
309.007	806.5
309.794	800.5
310.583	805.5
311.37	809.5
312.159	819.5
312.947	823
313.734	835.5
314.523	822.5
315.31	816
316.098	822.5
316.885	829
317.673	828.5
318.461	821.5
319.247	816
320.036	850
320.822	823
321.61	829.5
322.396	830
323.184	823
323.97	833
324.756	835
325.544	821
326.33	816.5
327.118	797
327.904	811.5
328.691	820.5
329.477	800
330.263	784.5
331.05	797.5
331.836	793
332.623	787
333.408	786.5
334.194	785
334.981	766.5
335.766	763
336.551	763.5
337.338	747.5
338.124	760
338.909	752
339.694	751
340.48	754.5
341.265	732.5
342.05	757
342.835	726.5
343.622	729
344.406	719.5
345.191	721
345.976	712.5
346.762	701.5
347.546	703.5
348.331	685
349.115	697.5
349.9	677.5
350.684	671.5
351.47	693.5
352.254	651.5
353.038	662.5
353.823	659.5
354.607	653.5
355.391	656
356.175	657
356.958	635.5
357.742	638.5
358.526	629.5
359.31	626
360.095	632.5
360.879	621.5
361.662	623
362.446	609.5
363.229	608
364.013	621
364.796	613
365.579	605
366.363	612
367.144	618
367.927	596.5
368.71	610.8
369.493	587.1
370.276	591.9
371.059	598.2
371.842	605
372.625	598.3
373.408	575.6
374.19	580.9
374.973	578.7
375.754	586.5
376.537	601.5
377.319	586
378.102	591
378.884	603
379.665	583.5
380.447	585.5
381.229	584.5
382.011	584.5
382.793	582
383.574	594
384.356	582
385.138	571
385.92	579.5
386.7	581
387.482	585
388.263	579.5
389.044	555
389.825	543
390.607	560.5
391.387	540
392.168	557.5
392.949	546
393.729	538
394.511	564
395.292	527.5
396.071	544.5
396.853	540.5
397.632	555.5
398.413	535.5
399.194	540
399.973	532.5
400.754	535.5
401.533	523
402.314	532.5
403.093	527.5
403.874	538.5
404.653	543
405.433	528.5
406.212	530.5
406.993	527
407.772	527
408.552	526.5
409.331	522
410.111	534
410.889	537.5
411.668	520
412.448	533.5
413.226	531
414.006	530.5
414.785	529
415.563	546
416.343	520.5
417.121	524
417.9	537.5
418.678	529
419.456	548
420.234	528.5
421.014	532.5
421.792	548
422.569	537
423.349	534.5
424.126	534
424.904	540
425.682	537.5
426.461	542
427.238	534.5
428.015	539
428.793	548
429.572	543.5
430.349	555
431.126	557.5
431.903	561.5
432.68	552.5
433.457	566
434.236	561.5
435.013	568.5
435.79	571
436.566	580
437.343	577
438.12	574.5
438.896	582
439.673	575
440.45	605.5
441.226	589
442.004	583
442.78	589
443.557	596.5
444.333	604.5
445.109	591.5
445.885	609.5
446.661	613.5
447.438	624.5
448.214	635.5
448.989	621.5
449.765	630
450.54	635
451.315	643
452.091	641
452.867	648.5
453.642	649
454.418	649.5
455.194	661.5
455.969	658.5
456.744	650
457.52	669
458.293	666.5
459.069	677.5
459.844	649.5
460.619	686.5
461.394	682.5
462.169	665.5
462.943	675.5
463.717	683
464.492	680
465.267	676
466.04	680.5
466.815	691
467.59	666.5
468.364	685.5
469.137	677.5
469.912	668.5
470.686	673.5
471.459	678.5
472.233	670.5
473.008	672.5
473.78	665.5
474.555	664.5
475.329	672.5
476.101	651
476.875	650.5
477.649	638
478.422	654
479.195	655
479.968	661.5
480.741	652
481.514	654.5
482.287	637.5
483.061	630.5
483.833	627.5
484.606	633.5
485.378	620.5
486.151	621.5
486.923	617
487.696	623.5
488.468	625
489.241	626
490.013	614.5
490.786	615
491.557	622.5
492.329	603.5
493.102	598.5
493.873	634
494.646	611
495.417	601.5
496.188	607
496.961	601.5
497.732	602
498.503	607.5
499.275	592
500.046	607.5
500.817	595
501.589	599
502.36	595.5
503.13	577
503.902	618.5
504.673	578
505.444	564
506.214	585.5
506.986	570
507.756	573.5
508.526	572.5
509.297	583.5
510.068	576.5
510.839	594.5
511.609	582.5
512.379	592
513.149	589
513.919	598.5
514.69	597
515.46	608
516.229	609
516.999	615.5
517.769	594.5
518.538	603
519.308	596.5
520.077	612.5
520.848	598.5
521.618	610
522.387	602
523.156	620
523.925	601.5
524.695	629
525.464	608.5
526.233	613.5
527.002	609
527.771	611.5
528.54	606
529.308	596
530.077	599
530.846	590
531.615	614
532.382	611.5
533.15	590.5
533.919	607.5
534.687	610.5
535.456	582.5
536.224	603
536.992	578
537.761	569.5
538.527	594.5
539.296	590
540.064	579
540.832	600.5
541.6	589
542.368	564.5
543.134	574
543.902	572
544.67	592
545.437	583
546.204	577.5
546.971	566.5
547.739	579.5
548.506	568
549.272	568.5
550.04	573.5
550.807	557.5
551.573	566.5
552.34	556
553.107	559.5
553.873	565
554.64	560.5
555.407	570
556.172	539
556.939	567
557.706	542.5
558.472	543
559.238	562
560.004	535
560.77	534.5
561.535	538.5
562.302	531.5
563.068	540
563.833	546
564.6	523
565.365	551.5
566.131	526
566.896	517
567.662	530.5
568.426	520
569.192	515
569.957	519
570.721	508
571.487	521
572.252	506.5
573.018	506
573.782	512.5
574.546	517.5
575.312	512
576.076	512
576.841	499
577.605	513
578.369	507
579.135	490
579.898	501.5
580.662	498
581.427	503.5
582.191	486
582.955	490.5
583.718	500.5
584.483	494
585.247	493.5
586.01	493.5
586.774	480
587.538	488.5
588.302	486
589.065	486
589.828	476.5
590.591	493
591.356	494.5
592.119	478.5
592.882	484.5
593.645	486.5
594.407	484
595.17	490.5
595.933	491.5
596.697	474
597.46	488
598.222	477.5
598.985	473.5
599.747	490.5
600.51	480
601.272	493.5
602.034	498.5
602.797	499.5
603.559	473
604.321	490.5
605.083	489.5
605.845	472
606.607	489.5
607.369	493.5
608.131	495
608.893	488.5
609.655	501
610.416	492.5
611.178	511.5
611.94	497
612.7	500
613.461	487
614.223	504
614.984	497.5
615.745	496
616.507	493
617.268	500
618.029	506.5
618.789	488.5
619.55	514.5
620.311	503.5
621.072	507.5
621.833	510.5
622.592	504
623.353	498
624.114	506.5
624.875	508
625.634	512
626.395	511.5
627.155	516.5
627.914	513.5
628.675	501
629.435	507.5
630.194	519
630.954	521.5
631.715	512.5
632.473	534
633.233	515
633.994	516
634.752	521.5
635.512	535.5
636.271	519
637.03	513.5
637.79	535
638.549	522
639.308	528.5
640.067	537.5
640.826	531.5
641.584	537.5
642.344	536
643.102	530.5
643.861	558
644.619	539.5
645.378	547.5
646.136	555
646.895	557
647.653	552.5
648.412	550
649.17	554
649.927	564
650.686	560.5
651.444	558.5
652.203	566
652.96	555.5
653.717	578.5
654.476	569.5
655.233	583
655.99	580.5
656.749	575.5
657.506	593.5
658.263	568.5
659.021	591
659.778	597
660.535	593.5
661.291	589.5
662.049	601
662.806	592
663.563	600
664.319	607.5
665.077	595
665.834	620.5
666.59	613
667.346	600
668.103	614
668.86	601
669.616	601
670.373	611.5
671.129	617
671.885	617
672.641	608
673.397	605.5
674.152	632
674.908	616.5
675.665	610.5
676.421	617
677.177	628
677.932	628
678.688	629
679.443	623.5
680.199	636.5
680.954	639.5
681.71	637.5
682.465	634.5
683.22	640
683.975	630
684.73	636.5
685.485	646
686.241	630.5
686.994	626.5
687.749	644.5
688.504	640
689.259	620.5
690.013	621.5
690.768	619.5
691.523	634
692.277	628
693.03	624
693.785	618.5
694.539	629.5
695.294	619.5
696.048	608.5
696.802	606.5
697.555	599.5
698.309	603.5
699.064	596
699.818	587.5
700.57	578
701.324	587
702.078	580.5
702.832	570.5
703.584	560
704.338	554
705.092	537
705.844	557.5
706.598	545
707.351	550
708.103	538.5
708.857	535.5
709.61	542
710.362	528.5
711.116	529
711.867	530
712.621	506
713.372	504.5
714.125	487.5
714.878	483.5
715.63	477
716.383	478.5
717.134	471
717.887	488.5
718.639	477.5
719.391	479
720.143	466
720.895	460
721.646	462.5
722.399	453
723.15	463
723.901	441
724.653	450.5
725.404	448.5
726.156	462
726.907	464.5
727.658	427.5
728.41	442.5
729.161	443
729.911	437.5
730.663	439.5
731.414	430.5
732.164	432.5
732.916	445
733.666	433.5
734.416	434.5
735.168	426.5
735.918	430.5
736.668	432
737.418	438
738.17	442.5
738.92	449
739.67	441
740.419	435
741.171	444
741.92	430
742.67	451.5
743.42	433
744.169	425
744.919	435
745.668	453.5
746.419	436.5
747.169	431.5
747.918	431
748.667	437
749.416	420
750.166	420.5
750.915	426.5
751.664	419
752.413	433.5
753.162	428.5
753.911	413.5
754.66	423
755.408	422
756.157	416.5
756.906	404
757.655	411.5
758.403	416.5
759.152	406.5
759.9	403.5
760.649	407
761.397	400.5
762.145	405.5
762.894	396
763.642	403
764.39	398
765.137	399
765.885	385.5
766.633	375.5
767.381	380
768.129	373.5
768.877	387
769.623	373.5
770.371	389
771.119	376.5
771.866	373
772.614	375
773.36	374.5
774.108	347
774.855	367
775.603	348
776.349	359.5
777.096	348
777.843	351.5
778.589	342.5
779.336	344
780.083	340
780.829	334
781.576	346.5
782.323	350.5
783.068	337.5
783.815	335
784.562	338.5
785.307	328
786.054	323.5
786.799	314.5
787.546	318
788.291	328
789.038	313
789.783	317
790.529	314.5
791.275	317
792.02	323
792.766	299
793.511	311.5
794.256	308
795.002	301
795.747	307
796.493	299.5
797.237	302.5
797.983	290
798.727	299
799.472	305.5
800.218	304.5
800.962	316
801.707	287
802.452	307.5
803.196	293
803.941	296
804.685	289
805.429	290
806.174	293
806.918	292.5
807.662	296.5
808.406	288
809.151	287.5
809.895	280
810.638	284
811.383	294.5
812.127	285.5
812.87	290
813.613	291
814.357	285
815.102	286
815.845	276
816.588	270
817.331	272
818.074	285
818.817	283
819.56	282.5
820.305	287
821.047	273
821.79	290.5
822.533	282.5
823.276	275.5
824.018	280
824.761	281.5
825.504	283.5
826.246	273
826.989	277
827.731	289
828.473	273.5
829.216	275.5
829.958	286.5
830.7	278
831.442	279
832.185	279
832.927	273
833.669	277
834.411	281
835.152	273
835.893	275
836.635	271.5
837.376	270.5
838.118	268.5
838.86	269
839.602	274.5
840.343	271
841.083	281
841.825	276
842.566	284.5
843.307	268
844.049	276.5
844.788	282
845.53	282.5
846.271	267
847.012	290.5
847.752	284
848.493	271
849.234	278.5
849.974	281.5
850.714	279.5
851.455	285.5
852.195	280
852.935	288
853.675	281
854.416	272
855.155	277.5
855.896	287.5
856.635	277.5
857.375	299
858.115	293.5
858.854	281
859.594	270
860.333	272
861.073	287
861.812	289
862.552	278
863.291	276.5
864.031	268
864.769	293.5
865.509	277.5
866.247	286
866.987	279.5
867.725	274
868.465	277.5
869.203	275
869.941	284
870.681	277.5
871.419	274
872.158	285
872.896	278
873.634	270.5
874.373	285.5
875.111	271.5
875.849	278
876.588	271.5
877.325	270.5
878.063	276
878.802	276.5
879.539	273.5
880.277	286
881.014	258
881.753	282
882.49	274
883.227	273
883.964	277
884.703	272
885.44	273.5
886.177	280.5
886.914	270.5
